# OCP for graphite from Siegel 2022
# sto,ocp [V]
# extra point to avoid extrapolation
0,0.891869304
# experimentally measured data
2.27E-05,0.887438012
0.000129826,0.883047716
0.000236959,0.87869804
0.000344108,0.874388612
0.000451275,0.870119062
0.000558457,0.865889021
0.000665656,0.861698125
0.000772872,0.857546009
0.000880103,0.853432314
0.00098735,0.84935668
0.001094612,0.845318752
0.001201889,0.841318176
0.001309182,0.837354601
0.001416489,0.833427677
0.001523811,0.829537058
0.001631147,0.825682399
0.001738497,0.821863358
0.001845862,0.818079595
0.00195324,0.814330773
0.002060631,0.810616556
0.002168036,0.806936611
0.002275454,0.803290608
0.002382885,0.799678218
0.002490329,0.796099115
0.002597785,0.792552974
0.002705254,0.789039474
0.002812735,0.785558296
0.002920228,0.782109121
0.003027732,0.778691635
0.003135248,0.775305525
0.003242776,0.77195048
0.003350315,0.768626191
0.003457864,0.765332352
0.003565425,0.76206866
0.003672997,0.758834811
0.003780578,0.755630506
0.003888171,0.752455447
0.003995773,0.749309338
0.004103385,0.746191887
0.004211008,0.743102801
0.004318639,0.740041792
0.004426281,0.737008572
0.004533931,0.734002856
0.004641591,0.731024362
0.00474926,0.728072808
0.004856938,0.725147916
0.004964624,0.722249409
0.005072319,0.719377013
0.005180022,0.716530454
0.005287733,0.713709463
0.005395453,0.710913771
0.00550318,0.708143111
0.005610915,0.705397219
0.005718658,0.702675832
0.005826408,0.699978691
0.005934165,0.697305537
0.00604193,0.694656113
0.006149701,0.692030165
0.00625748,0.689427441
0.006365265,0.68684769
0.006473057,0.684290664
0.006580855,0.681756116
0.00668866,0.679243801
0.006796471,0.676753478
0.006904288,0.674284905
0.007012111,0.671837844
0.00711994,0.669412057
0.007227774,0.66700731
0.007335614,0.66462337
0.007443459,0.662260005
0.00755131,0.659916987
0.007659166,0.657594088
0.007767027,0.655291083
0.007874893,0.653007747
0.007982764,0.65074386
0.008090639,0.648499201
0.008198519,0.646273552
0.008306404,0.644066697
0.008414293,0.641878422
0.008522186,0.639708514
0.008630083,0.637556763
0.008737985,0.635422959
0.00884589,0.633306895
0.008953799,0.631208365
0.009061712,0.629127168
0.009169629,0.627063099
0.009277549,0.62501596
0.009385473,0.622985553
0.009493399,0.62097168
0.00960133,0.618974147
0.009709263,0.616992761
0.009817199,0.61502733
0.009925138,0.613077666
0.01003308,0.611143579
0.010141025,0.609224885
0.010248973,0.607321398
0.010356923,0.605432936
0.010464876,0.603559317
0.010572831,0.601700363
0.010680788,0.599855895
0.010788748,0.598025738
0.010896709,0.596209717
0.011004673,0.594407659
0.011112639,0.592619393
0.011220607,0.59084475
0.011328576,0.589083562
0.011436548,0.587335662
0.011544521,0.585600887
0.011652496,0.583879072
0.011760472,0.582170056
0.01186845,0.58047368
0.011976429,0.578789785
0.012084409,0.577118215
0.012192391,0.575458814
0.012300374,0.573811428
0.012408358,0.572175907
0.012516343,0.570552098
0.012624329,0.568939854
0.012732316,0.567339026
0.012840304,0.56574947
0.012948293,0.564171039
0.013056282,0.562603592
0.013164273,0.561046987
0.013272264,0.559501085
0.013380255,0.557965746
0.013488247,0.556440833
0.013596239,0.554926212
0.013704232,0.553421747
0.013812225,0.551927307
0.013920219,0.550442761
0.014028213,0.548967977
0.014136207,0.547502829
0.014244201,0.546047189
0.014352195,0.544600932
0.014460189,0.543163934
0.014568184,0.541736072
0.014676178,0.540317224
0.014784172,0.538907272
0.014892167,0.537506095
0.015000161,0.536113578
0.015108154,0.534729604
0.015216148,0.533354058
0.015324141,0.531986829
0.015432134,0.530627803
0.015540127,0.52927687
0.01564812,0.527933922
0.015756111,0.526598851
0.015864103,0.525271549
0.015972094,0.523951912
0.016080084,0.522639835
0.016188074,0.521335217
0.016296064,0.520037955
0.016404052,0.51874795
0.01651204,0.517465103
0.016620028,0.516189316
0.016728014,0.514920492
0.016836,0.513658537
0.016943986,0.512403357
0.01705197,0.511154859
0.017159954,0.509912951
0.017267937,0.508677544
0.017375919,0.507448548
0.0174839,0.506225876
0.01759188,0.50500944
0.01769986,0.503799155
0.017807838,0.502594938
0.017915816,0.501396704
0.018023792,0.500204372
0.018131768,0.49901786
0.018239742,0.49783709
0.018347716,0.496661982
0.018455688,0.495492459
0.01856366,0.494328444
0.01867163,0.493169863
0.018779599,0.492016641
0.018887568,0.490868706
0.018995535,0.489725984
0.019103501,0.488588405
0.019211466,0.4874559
0.01931943,0.486328399
0.019427392,0.485205836
0.019535354,0.484088142
0.019643314,0.482975253
0.019751274,0.481867103
0.019859232,0.48076363
0.019967189,0.479664771
0.020075144,0.478570464
0.020183099,0.477480649
0.020291052,0.476395265
0.020399004,0.475314255
0.020506955,0.474237561
0.020614905,0.473165126
0.020722854,0.472096895
0.020830801,0.471032812
0.020938747,0.469972825
0.021046692,0.46891688
0.021154636,0.467864925
0.021262579,0.466816909
0.02137052,0.465772783
0.021478461,0.464732497
0.0215864,0.463696003
0.021694338,0.462663254
0.021802274,0.461634203
0.02191021,0.460608804
0.022018144,0.459587013
0.022126078,0.458568786
0.02223401,0.45755408
0.022341941,0.456542854
0.02244987,0.455535064
0.022557799,0.454530672
0.022665726,0.453529638
0.022773653,0.452531922
0.022881578,0.451537486
0.022989502,0.450546294
0.023097425,0.44955831
0.023205347,0.448573496
0.023313268,0.44759182
0.023421188,0.446613246
0.023529107,0.445637741
0.023637025,0.444665273
0.023744941,0.443695809
0.023852857,0.44272932
0.023960772,0.441765774
0.024068686,0.440805143
0.024176598,0.439847396
0.02428451,0.438892506
0.024392421,0.437940446
0.024500331,0.436991188
0.02460824,0.436044707
0.024716148,0.435100978
0.024824055,0.434159975
0.024931961,0.433221675
0.025039867,0.432286054
0.025147771,0.431353089
0.025255675,0.430422759
0.025363578,0.429495041
0.02547148,0.428569916
0.025579382,0.427647363
0.025687283,0.426727362
0.025795182,0.425809894
0.025903082,0.424894941
0.02601098,0.423982486
0.026118878,0.42307251
0.026226775,0.422164998
0.026334672,0.421259933
0.026442568,0.4203573
0.026550463,0.419457083
0.026658358,0.418559269
0.026766252,0.417663844
0.026874145,0.416770794
0.026982038,0.415880106
0.027089931,0.414991768
0.027197823,0.414105769
0.027305723,0.413222219
0.027412908,0.412356513
0.027520457,0.41147689
0.027628299,0.410601314
0.027736223,0.409729605
0.02784415,0.40886275
0.027952076,0.407998491
0.028060002,0.407136236
0.028167929,0.406276251
0.028275855,0.405418662
0.028383782,0.40456241
0.028491708,0.403708009
0.028599635,0.402854391
0.028707562,0.402003259
0.028815489,0.401153279
0.028923416,0.400304969
0.029031343,0.399458256
0.02913927,0.398612642
0.029247198,0.397769399
0.029355125,0.396927487
0.029463053,0.396087747
0.029570981,0.395250291
0.029678909,0.394414949
0.029786837,0.393581996
0.029894765,0.392751555
0.030002694,0.39192261
0.030110622,0.391096314
0.030218551,0.390272496
0.030326479,0.389451447
0.030434408,0.388632738
0.030542337,0.387817227
0.030650266,0.387005365
0.030758195,0.386195283
0.030866124,0.385388592
0.030974054,0.3845856
0.031081984,0.383786159
0.031189914,0.382989558
0.031297844,0.38219624
0.031405774,0.381405641
0.031513705,0.380618654
0.031621635,0.379834116
0.031729566,0.379053455
0.031837498,0.378276238
0.031945429,0.37750218
0.03205336,0.376731142
0.032161292,0.375963254
0.032269224,0.375198522
0.032377156,0.374436782
0.032485088,0.373677127
0.032593021,0.372920684
0.032700954,0.372167407
0.032808887,0.371417534
0.03291682,0.370670146
0.033024754,0.369925615
0.033132688,0.369183743
0.033240622,0.368444622
0.033348556,0.36770806
0.033456491,0.366973566
0.033564426,0.366241502
0.033672361,0.365511649
0.033780296,0.364784071
0.033888232,0.364058838
0.033996167,0.363335732
0.034104103,0.362615111
0.03421204,0.361896726
0.034319976,0.361180338
0.034427913,0.360466737
0.03453585,0.359755121
0.034643787,0.359044974
0.034751725,0.358336906
0.034859663,0.357630357
0.034967601,0.356926508
0.035075539,0.356224687
0.035183477,0.355524948
0.035291416,0.354826753
0.035399355,0.354130463
0.035507294,0.353436711
0.035615234,0.35274453
0.035723173,0.352054234
0.035831113,0.351366121
0.035939053,0.350679941
0.036046994,0.349995871
0.036154934,0.349313652
0.036262875,0.348633054
0.036370816,0.347954245
0.036478758,0.347276967
0.036586699,0.346601994
0.036694641,0.345928926
0.036802583,0.345257653
0.036910525,0.344588661
0.037018468,0.343920972
0.03712641,0.343255022
0.037234353,0.342590836
0.037342296,0.341928863
0.037450239,0.341267813
0.037558183,0.340608726
0.037666127,0.339951364
0.037774071,0.339295771
0.037882015,0.338642567
0.037989959,0.337991338
0.038097904,0.337341507
0.038205849,0.336693385
0.038313794,0.336046998
0.038421739,0.335402672
0.038529685,0.334760001
0.03863763,0.334118549
0.038745576,0.333479342
0.038853522,0.332841114
0.038961469,0.332205187
0.039069415,0.331570422
0.039177362,0.330937724
0.039285309,0.330307116
0.039393257,0.32967774
0.039501204,0.329050195
0.039609152,0.328423793
0.0397171,0.327799847
0.039825049,0.327177626
0.039932998,0.32655701
0.040040947,0.325938172
0.040148896,0.325321263
0.040256846,0.324705991
0.040364796,0.324092645
0.040472746,0.323480358
0.040580696,0.322869714
0.040688647,0.322260154
0.040796598,0.321652406
0.040904549,0.32104705
0.0410125,0.320443669
0.041120451,0.319841701
0.041228403,0.319241154
0.041336355,0.31864248
0.041444307,0.31804509
0.04155226,0.317449548
0.041660212,0.316855004
0.041768165,0.316262323
0.041876118,0.315671066
0.041984072,0.315081524
0.042092025,0.31449356
0.042199979,0.313907189
0.042307933,0.313322253
0.042415887,0.312739319
0.042523842,0.312157516
0.042631796,0.311577579
0.042739751,0.310999815
0.042847705,0.310423203
0.04295566,0.309847307
0.043063615,0.309273431
0.043171571,0.308700985
0.043279526,0.308129816
0.043387481,0.30755995
0.043495437,0.306991535
0.043603392,0.306423965
0.043711348,0.305858114
0.043819304,0.305294129
0.04392726,0.304730693
0.044035216,0.304168106
0.044143172,0.30360682
0.044251128,0.303046818
0.044359084,0.302488524
0.044467041,0.301931084
0.044574997,0.301374502
0.044682953,0.300819076
0.04479091,0.300265394
0.044898866,0.299712467
0.045006823,0.29916102
0.04511478,0.29861017
0.045222737,0.298061091
0.045330694,0.297512201
0.045438651,0.296964504
0.045546609,0.296417288
0.045654566,0.295871577
0.045762524,0.2953271
0.045870481,0.294783284
0.045978439,0.294240852
0.046086397,0.293699102
0.046194355,0.29315834
0.046302313,0.292618279
0.046410271,0.292079487
0.046518229,0.29154168
0.046626187,0.291004726
0.046734145,0.29046879
0.046842103,0.289933892
0.046950062,0.289399755
0.04705802,0.288866253
0.047165979,0.288333839
0.047273937,0.28780239
0.047381896,0.287272056
0.047489855,0.286741975
0.047597813,0.286213465
0.047705772,0.285686409
0.047813731,0.285159378
0.04792169,0.28463325
0.048029649,0.284107895
0.048137608,0.283584068
0.048245567,0.283060488
0.048353526,0.282538301
0.048461485,0.28201711
0.048569444,0.281497232
0.048677404,0.280977366
0.048785363,0.280458704
0.048893322,0.279940978
0.049001282,0.279424057
0.049109241,0.278908113
0.0492172,0.278393006
0.049325159,0.2778786
0.049433119,0.277365938
0.049541078,0.27685433
0.049649037,0.27634337
0.049756997,0.275833785
0.049864956,0.275324279
0.049972915,0.274815894
0.050080875,0.274308961
0.050188834,0.273802634
0.050296793,0.273296776
0.050404752,0.272792856
0.050512711,0.272289608
0.05062067,0.271787931
0.050728629,0.271286398
0.050836588,0.270787058
0.050944547,0.270287916
0.051052506,0.269790007
0.051160465,0.269292783
0.051268424,0.268796571
0.051376383,0.268302261
0.051484342,0.267808118
0.051592301,0.26731562
0.05170026,0.266824222
0.051808219,0.266333663
0.051916178,0.265844844
0.052024137,0.265357208
0.052132096,0.264871073
0.052240055,0.264385884
0.052348014,0.263901803
0.052455972,0.263418864
0.052563931,0.262937098
0.05267189,0.262456382
0.052779849,0.261977022
0.052887808,0.261498756
0.052995767,0.26102176
0.053103725,0.260546359
0.053211684,0.260072423
0.053319643,0.259599968
0.053427602,0.259128453
0.053535561,0.258658495
0.05364352,0.258189679
0.053751479,0.257722898
0.053859438,0.257257012
0.053967397,0.256792905
0.054075356,0.25632987
0.054183315,0.255868676
0.054291275,0.255408654
0.054399234,0.254950693
0.054507193,0.254493516
0.054615152,0.254038004
0.054723111,0.253584178
0.05483107,0.253131788
0.054939029,0.252681293
0.055046988,0.252232131
0.055154947,0.251784747
0.055262906,0.251338894
0.055370866,0.25089462
0.055478825,0.250452371
0.055586784,0.250011886
0.055694744,0.249573191
0.055802703,0.249135727
0.055910662,0.248699835
0.056018622,0.248265277
0.056126581,0.247833214
0.05623454,0.247402361
0.0563425,0.246974052
0.056450459,0.246547426
0.056558419,0.24612263
0.056666378,0.245699289
0.056774338,0.245278028
0.056882297,0.244858557
0.056990257,0.24444061
0.057098217,0.244025086
0.057206176,0.243611292
0.057314136,0.243200104
0.057422096,0.242790242
0.057530056,0.242383044
0.057638016,0.241976655
0.057745976,0.241572249
0.057853936,0.241170578
0.057961896,0.240771114
0.058069857,0.24037273
0.058177817,0.239976881
0.058285777,0.239583159
0.058393737,0.239191566
0.058501697,0.238802256
0.058609657,0.23841482
0.058717618,0.238029147
0.058825578,0.237646282
0.058933539,0.237265229
0.059041499,0.236886004
0.05914946,0.236509502
0.05925742,0.236135466
0.059365381,0.235763348
0.059473341,0.235393452
0.059581301,0.235026082
0.059689261,0.23466113
0.059797221,0.234298752
0.059905181,0.2339378
0.060013141,0.233579299
0.060121101,0.233223133
0.060229061,0.232869317
0.060337021,0.232517721
0.06044498,0.232168378
0.06055294,0.231821585
0.0606609,0.231477352
0.060768859,0.231134689
0.060876819,0.230794629
0.060984778,0.23045662
0.061092738,0.230121687
0.061200697,0.229789247
0.061308656,0.22945888
0.061416616,0.229131191
0.061524575,0.22880505
0.061632534,0.228482071
0.061740493,0.228161396
0.061848452,0.227843193
0.06195641,0.227527341
0.062064369,0.227214421
0.062172328,0.226903555
0.062280287,0.226594886
0.062388245,0.226288575
0.062496204,0.225984921
0.062604162,0.225684102
0.062712121,0.225385427
0.062820079,0.225088899
0.062928038,0.224795694
0.063035996,0.224504818
0.063143954,0.224216424
0.063251913,0.223930672
0.063359871,0.22364785
0.063467829,0.223366946
0.063575787,0.223088857
0.063683745,0.222812869
0.063791703,0.222539292
0.063899661,0.222268724
0.064007619,0.222000586
0.064115577,0.221735327
0.064223535,0.221472228
0.064331492,0.221211714
0.06443945,0.220953956
0.064547408,0.220699257
0.064655366,0.22044645
0.064763323,0.22019569
0.064871281,0.219947567
0.064979238,0.219701932
0.065087196,0.219459069
0.065195153,0.219219001
0.065303111,0.218981443
0.065411068,0.218746536
0.065519026,0.218513845
0.065626983,0.218284684
0.06573494,0.218057471
0.065842897,0.217832518
0.065950854,0.217610128
0.066058812,0.217390448
0.066166769,0.217173475
0.066274726,0.216958927
0.066382683,0.216746809
0.066490641,0.216536526
0.066598598,0.216329529
0.066706555,0.216125386
0.066814513,0.215923939
0.066922471,0.215724461
0.067030428,0.215527395
0.067138386,0.215332887
0.067246343,0.215140796
0.067354301,0.214951128
0.067462259,0.214764475
0.067570217,0.214579992
0.067678175,0.214398247
0.067786132,0.214219225
0.06789409,0.214042493
0.068002048,0.213867902
0.068110006,0.213695451
0.068217964,0.213524989
0.068325923,0.213357514
0.068433881,0.213192602
0.068541839,0.213030541
0.068649797,0.212870603
0.068757756,0.212712928
0.068865714,0.212557505
0.068973673,0.212404763
0.069081632,0.212253981
0.06918959,0.212105464
0.069297549,0.211959944
0.069405508,0.211816974
0.069513467,0.21167581
0.069621427,0.211537312
0.069729386,0.211400883
0.069837345,0.211266961
0.069945304,0.211134973
0.070053264,0.211005622
0.070161223,0.210878468
0.070269182,0.210753223
0.070377142,0.210630579
0.070485102,0.210509942
0.070593061,0.210391756
0.070701021,0.210275872
0.070808981,0.210161554
0.07091694,0.210049529
0.0710249,0.209939497
0.07113286,0.209831732
0.07124082,0.209726232
0.07134878,0.209622988
0.071456739,0.209521695
0.071564699,0.209422633
0.071672659,0.209325645
0.071780619,0.209230567
0.07188858,0.20913739
0.07199654,0.209045964
0.0721045,0.20895686
0.07221246,0.208869928
0.07232042,0.208785144
0.07242838,0.208702353
0.07253634,0.208621397
0.0726443,0.208541675
0.072752261,0.208464492
0.072860221,0.208388823
0.072968181,0.208315083
0.073076141,0.208242827
0.073184102,0.208172194
0.073292062,0.208104473
0.073400023,0.208037478
0.073507984,0.207972926
0.073615944,0.207909787
0.073723905,0.207848913
0.073831866,0.207788984
0.073939827,0.207730993
0.074047788,0.207674635
0.07415575,0.2076202
0.074263711,0.207567111
0.074371672,0.207515345
0.074479634,0.207465748
0.074587595,0.207417139
0.074695557,0.207370357
0.074803519,0.207324948
0.074911481,0.207281625
0.075019443,0.207239665
0.075127405,0.207198771
0.075235367,0.207159359
0.07534333,0.207122268
0.075451292,0.20708604
0.075559254,0.207051106
0.075667217,0.207017891
0.07577518,0.206985071
0.075883143,0.206953631
0.075991105,0.206923848
0.076099069,0.206895271
0.076207032,0.206867872
0.076314995,0.206841764
0.076422959,0.206816949
0.076530922,0.206793425
0.076638886,0.206771311
0.07674685,0.206750152
0.076854814,0.206730482
0.076962778,0.206711706
0.077070742,0.206693679
0.077178707,0.206676673
0.077286671,0.206660825
0.077394635,0.206645968
0.0775026,0.206631929
0.077610565,0.206618565
0.07771853,0.206606427
0.077826494,0.206595772
0.07793446,0.206585591
0.078042425,0.206576172
0.07815039,0.206567639
0.078258355,0.206559976
0.078366321,0.206552885
0.078474286,0.206546202
0.078582252,0.206541057
0.078690217,0.206536843
0.078798183,0.206532951
0.078906149,0.206529512
0.079014114,0.206526952
0.07912208,0.206525121
0.079230046,0.206524006
0.079338013,0.206523585
0.079445979,0.206523424
0.079553945,0.206523929
0.079661912,0.206524346
0.079769878,0.206526099
0.079877845,0.206528151
0.079985812,0.206531358
0.080093779,0.206534411
0.080201747,0.206538002
0.080309714,0.206542128
0.080417682,0.206546231
0.08052565,0.206550995
0.080633618,0.206556255
0.080741586,0.206561868
0.080849555,0.206567644
0.080957524,0.206573839
0.081065493,0.206580008
0.081173462,0.206586423
0.081281431,0.206592935
0.0813894,0.206599676
0.08149737,0.20660721
0.08160534,0.206615241
0.08171331,0.206622458
0.08182128,0.206630292
0.08192925,0.206637855
0.082037221,0.20664629
0.082145191,0.206654576
0.082253162,0.206662717
0.082361133,0.206669974
0.082469105,0.206678039
0.082577076,0.206685735
0.082685047,0.206693638
0.082793019,0.206701736
0.082900991,0.20671017
0.083008963,0.206718218
0.083116935,0.206726301
0.083224907,0.206733842
0.08333288,0.206741699
0.083440853,0.206749411
0.083548825,0.206757245
0.083656798,0.2067646
0.083764771,0.206772057
0.083872745,0.20677947
0.083980718,0.206786544
0.084088691,0.206793565
0.084196665,0.206799646
0.084304638,0.20680594
0.084412612,0.206812006
0.084520586,0.206818405
0.08462856,0.206824126
0.084736534,0.206828749
0.084844508,0.206833989
0.084952482,0.206838667
0.085060457,0.206842916
0.085168432,0.206847041
0.085276407,0.206851054
0.085384382,0.206854212
0.085492357,0.206857386
0.085600332,0.206860283
0.085708308,0.206863024
0.085816283,0.20686487
0.085924259,0.206867264
0.086032235,0.206869066
0.086140211,0.206869984
0.086248188,0.206870283
0.086356164,0.206870111
0.086464141,0.206869759
0.086572117,0.206869086
0.086680094,0.206867687
0.086788071,0.206866145
0.086896048,0.206863867
0.087004025,0.20686113
0.087112003,0.206857799
0.08721998,0.206854604
0.087327957,0.206850817
0.087435935,0.206846889
0.087543913,0.206842109
0.087651891,0.206838065
0.087759868,0.20683317
0.087867846,0.206827568
0.087975824,0.206821246
0.088083802,0.206814065
0.08819178,0.206806327
0.088299758,0.206798738
0.088407736,0.206789865
0.088515715,0.206781317
0.088623693,0.206772091
0.088731671,0.20676264
0.08883965,0.206752684
0.088947628,0.206741958
0.089055607,0.20673148
0.089163585,0.206720674
0.089271563,0.20670913
0.089379542,0.206696853
0.08948752,0.206684573
0.089595499,0.206671438
0.089703477,0.206658187
0.089811455,0.206645135
0.089919434,0.20663128
0.090027412,0.206617211
0.09013539,0.206601921
